x [um]	Total Charge Density [C/cm^3]
0.193649	1.54251e-08
0.1943	1.54251e-08
0.194951	1.51771e-08
0.195601	1.49328e-08
0.196252	1.46924e-08
0.196903	1.44558e-08
0.197554	1.42228e-08
0.198204	1.39935e-08
0.198855	1.37677e-08
0.199506	1.35455e-08
0.200156	1.33267e-08
0.200807	1.31114e-08
0.201458	1.28994e-08
0.202109	1.26907e-08
0.202759	1.24853e-08
0.20341	1.22831e-08
0.204061	1.2084e-08
0.204712	1.18881e-08
0.205362	1.16951e-08
0.206013	1.15052e-08
0.206664	1.13183e-08
0.207315	1.11343e-08
0.207965	1.09531e-08
0.208616	1.07748e-08
0.209267	1.05992e-08
0.209917	1.04264e-08
0.210568	1.02563e-08
0.211219	1.00888e-08
0.21187	9.92397e-09
0.21252	9.76168e-09
0.213171	9.60191e-09
0.213822	9.44464e-09
0.214473	9.28981e-09
0.215123	9.1374e-09
0.215774	8.98736e-09
0.216425	8.83965e-09
0.217076	8.69425e-09
0.217726	8.55111e-09
0.218377	8.41019e-09
0.219028	8.27147e-09
0.219678	8.13491e-09
0.220329	8.00048e-09
0.22098	7.86814e-09
0.221631	7.73785e-09
0.222281	7.6096e-09
0.222932	7.48333e-09
0.223583	7.35904e-09
0.224234	7.23667e-09
0.224884	7.11621e-09
0.225535	6.99762e-09
0.226186	6.88088e-09
0.226837	6.76595e-09
0.227487	6.65281e-09
0.228138	6.54142e-09
0.228789	6.43177e-09
0.229439	6.32382e-09
0.23009	6.21755e-09
0.230741	6.11293e-09
0.231392	6.00993e-09
0.232042	5.90854e-09
0.232693	5.80871e-09
0.233344	5.71044e-09
0.233995	5.6137e-09
0.234645	5.51845e-09
0.235296	5.42469e-09
0.235947	5.33237e-09
0.236597	5.2415e-09
0.237248	5.15203e-09
0.237899	5.06395e-09
0.23855	4.97723e-09
0.2392	4.89186e-09
0.239851	4.80781e-09
0.240502	4.72507e-09
0.241153	4.64361e-09
0.241803	4.56341e-09
0.242454	4.48445e-09
0.243105	4.40672e-09
0.243756	4.33019e-09
0.244406	4.25484e-09
0.245057	4.18067e-09
0.245708	4.10764e-09
0.246358	4.03574e-09
0.247009	3.96495e-09
0.24766	3.89526e-09
0.248311	3.82665e-09
0.248961	3.7591e-09
0.249612	3.69259e-09
0.250263	3.62711e-09
0.250914	3.56265e-09
0.251564	3.49918e-09
0.252215	3.43669e-09
0.252866	3.37516e-09
0.253517	3.31459e-09
0.254167	3.25495e-09
0.254818	3.19623e-09
0.255469	3.13842e-09
0.256119	3.0815e-09
0.25677	3.02546e-09
0.257421	2.97029e-09
0.258072	2.91596e-09
0.258722	2.86247e-09
0.259373	2.80981e-09
0.260024	2.75796e-09
0.260675	2.7069e-09
0.261325	2.65664e-09
0.261976	2.60714e-09
0.262627	2.55841e-09
0.263278	2.51043e-09
0.263928	2.46319e-09
0.264579	2.41667e-09
0.26523	2.37087e-09
0.26588	2.32577e-09
0.266531	2.28137e-09
0.267182	2.23765e-09
0.267833	2.1946e-09
0.268483	2.15221e-09
0.269134	2.11047e-09
0.269785	2.06938e-09
0.270436	2.02891e-09
0.271086	1.98906e-09
0.271737	1.94983e-09
0.272388	1.9112e-09
0.273038	1.87315e-09
0.273689	1.8357e-09
0.27434	1.79881e-09
0.274991	1.76249e-09
0.275641	1.72672e-09
0.276292	1.69151e-09
0.276943	1.65683e-09
0.277594	1.62268e-09
0.278244	1.58905e-09
0.278895	1.55594e-09
0.279546	1.52333e-09
0.280197	1.49122e-09
0.280847	1.4596e-09
0.281498	1.42846e-09
0.282149	1.3978e-09
0.282799	1.3676e-09
0.28345	1.33786e-09
0.284101	1.30858e-09
0.284752	1.27974e-09
0.285402	1.25134e-09
0.286053	1.22337e-09
0.286704	1.19583e-09
0.287355	1.16871e-09
0.288005	1.142e-09
0.288656	1.11569e-09
0.289307	1.08978e-09
0.289958	1.06427e-09
0.290608	1.03914e-09
0.291259	1.01439e-09
0.29191	9.9002e-10
0.29256	9.66016e-10
0.293211	9.42376e-10
0.293862	9.19093e-10
0.294513	8.96161e-10
0.295163	8.73576e-10
0.295814	8.51332e-10
0.296465	8.29423e-10
0.297116	8.07845e-10
0.297766	7.86592e-10
0.298417	7.65659e-10
0.299068	7.45041e-10
0.299719	7.24733e-10
0.300369	7.0473e-10
0.30102	6.85028e-10
0.301671	6.65622e-10
0.302321	6.46507e-10
0.302972	6.27678e-10
0.303623	6.09132e-10
0.304274	5.90863e-10
0.304924	5.72868e-10
0.305575	5.55141e-10
0.306226	5.3768e-10
0.306877	5.2048e-10
0.307527	5.03536e-10
0.308178	4.86844e-10
0.308829	4.70402e-10
0.30948	4.54204e-10
0.31013	4.38248e-10
0.310781	4.22528e-10
0.311432	4.07042e-10
0.312082	3.91786e-10
0.312733	3.76756e-10
0.313384	3.61949e-10
0.314035	3.47361e-10
0.314685	3.32989e-10
0.315336	3.1883e-10
0.315987	3.04879e-10
0.316638	2.91135e-10
0.317288	2.77593e-10
0.317939	2.6425e-10
0.31859	2.51104e-10
0.31924	2.38151e-10
0.319891	2.25389e-10
0.320542	2.12813e-10
0.321193	2.00422e-10
0.321843	1.88213e-10
0.322494	1.76182e-10
0.323145	1.64327e-10
0.323796	1.52645e-10
0.324446	1.41134e-10
0.325097	1.2979e-10
0.325748	1.18611e-10
0.326399	1.07595e-10
0.327049	9.67387e-11
0.3277	8.60399e-11
0.328351	7.54962e-11
0.329001	6.5105e-11
0.329652	5.48641e-11
0.330303	4.4771e-11
0.330954	3.48234e-11
0.331604	2.50192e-11
0.332255	1.53559e-11
0.332906	5.83152e-12
0.333557	-3.55624e-12
0.334207	-1.28095e-11
0.334858	-2.19303e-11
0.335509	-3.09208e-11
0.33616	-3.9783e-11
0.33681	-4.85188e-11
0.337461	-5.71304e-11
0.338112	-6.56195e-11
0.338762	-7.39882e-11
0.339413	-8.22383e-11
0.340064	-9.03717e-11
0.340715	-9.83902e-11
0.341365	-1.06296e-10
0.342016	-1.1409e-10
0.342667	-1.21774e-10
0.343318	-1.2935e-10
0.343968	-1.36821e-10
0.344619	-1.44186e-10
0.34527	-1.51449e-10
0.345921	-1.58611e-10
0.346571	-1.65673e-10
0.347222	-1.72636e-10
0.347873	-1.79503e-10
0.348523	-1.86275e-10
0.349174	-1.92954e-10
0.349825	-1.9954e-10
0.350476	-2.06035e-10
0.351126	-2.12441e-10
0.351777	-2.1876e-10
0.352428	-2.24991e-10
0.353079	-2.31138e-10
0.353729	-2.372e-10
0.35438	-2.4318e-10
0.355031	-2.49079e-10
0.355681	-2.54898e-10
0.356332	-2.60638e-10
0.356983	-2.66301e-10
0.357634	-2.71887e-10
0.358284	-2.77399e-10
0.358935	-2.82836e-10
0.359586	-2.88201e-10
0.360237	-2.93494e-10
0.360887	-2.98716e-10
0.361538	-3.03869e-10
0.362189	-3.08954e-10
0.36284	-3.13971e-10
0.36349	-3.18923e-10
0.364141	-3.23809e-10
0.364792	-3.28631e-10
0.365442	-3.3339e-10
0.366093	-3.38086e-10
0.366744	-3.42722e-10
0.367395	-3.47297e-10
0.368045	-3.51813e-10
0.368696	-3.56271e-10
0.369347	-3.60671e-10
0.369998	-3.65014e-10
0.370648	-3.69302e-10
0.371299	-3.73535e-10
0.37195	-3.77715e-10
0.372601	-3.81841e-10
0.373251	-3.85915e-10
0.373902	-3.89937e-10
0.374553	-3.93909e-10
0.375203	-3.97831e-10
0.375854	-4.01703e-10
0.376505	-4.05528e-10
0.377156	-4.09305e-10
0.377806	-4.13035e-10
0.378457	-4.16719e-10
0.379108	-4.20358e-10
0.379759	-4.23952e-10
0.380409	-4.27502e-10
0.38106	-4.31009e-10
0.381711	-4.34473e-10
0.382362	-4.37896e-10
0.383012	-4.41277e-10
0.383663	-4.44617e-10
0.384314	-4.47918e-10
0.384964	-4.51179e-10
0.385615	-4.54402e-10
0.386266	-4.57586e-10
0.386917	-4.60733e-10
0.387567	-4.63842e-10
0.388218	-4.66916e-10
0.388869	-4.69953e-10
0.38952	-4.72956e-10
0.39017	-4.75923e-10
0.390821	-4.78857e-10
0.391472	-4.81757e-10
0.392122	-4.84624e-10
0.392773	-4.87458e-10
0.393424	-4.9026e-10
0.394075	-4.93031e-10
0.394725	-4.9577e-10
0.395376	-4.98479e-10
0.396027	-5.01158e-10
0.396678	-5.03807e-10
0.397328	-5.06427e-10
0.397979	-5.09019e-10
0.39863	-5.11582e-10
0.399281	-5.14117e-10
0.399931	-5.16625e-10
0.400582	-5.19106e-10
0.401233	-5.2156e-10
0.401883	-5.23988e-10
0.402534	-5.26391e-10
0.403185	-5.28768e-10
0.403836	-5.3112e-10
0.404486	-5.33448e-10
0.405137	-5.35752e-10
0.405788	-5.38032e-10
0.406439	-5.40288e-10
0.407089	-5.42522e-10
0.40774	-5.44733e-10
0.408391	-5.46921e-10
0.409042	-5.49088e-10
0.409692	-5.51233e-10
0.410343	-5.53356e-10
0.410994	-5.55459e-10
0.411644	-5.57541e-10
0.412295	-5.59603e-10
0.412946	-5.61644e-10
0.413597	-5.63667e-10
0.414247	-5.65669e-10
0.414898	-5.67653e-10
0.415549	-5.69618e-10
0.4162	-5.71565e-10
0.41685	-5.73493e-10
0.417501	-5.75403e-10
0.418152	-5.77296e-10
0.418803	-5.79172e-10
0.419453	-5.8103e-10
0.420104	-5.82872e-10
0.420755	-5.84697e-10
0.421405	-5.86506e-10
0.422056	-5.88299e-10
0.422707	-5.90076e-10
0.423358	-5.91837e-10
0.424008	-5.93584e-10
0.424659	-5.95315e-10
0.42531	-5.97032e-10
0.425961	-5.98733e-10
0.426611	-6.00421e-10
0.427262	-6.02095e-10
0.427913	-6.03754e-10
0.428563	-6.054e-10
0.429214	-6.07032e-10
0.429865	-6.08652e-10
0.430516	-6.10258e-10
0.431166	-6.11851e-10
0.431817	-6.13432e-10
0.432468	-6.15e-10
0.433119	-6.16556e-10
0.433769	-6.181e-10
0.43442	-6.19632e-10
0.435071	-6.21153e-10
0.435722	-6.22661e-10
0.436372	-6.24159e-10
0.437023	-6.25646e-10
0.437674	-6.27121e-10
0.438324	-6.28586e-10
0.438975	-6.3004e-10
0.439626	-6.31484e-10
0.440277	-6.32917e-10
0.440927	-6.3434e-10
0.441578	-6.35754e-10
0.442229	-6.37157e-10
0.44288	-6.38551e-10
0.44353	-6.39936e-10
0.444181	-6.41311e-10
0.444832	-6.42676e-10
0.445483	-6.44033e-10
0.446133	-6.45381e-10
0.446784	-6.4672e-10
0.447435	-6.48051e-10
0.448085	-6.49372e-10
0.448736	-6.50686e-10
0.449387	-6.51991e-10
0.450038	-6.53288e-10
0.450688	-6.54578e-10
0.451339	-6.55859e-10
0.45199	-6.57133e-10
0.452641	-6.58399e-10
0.453291	-6.59657e-10
0.453942	-6.60908e-10
0.454593	-6.62152e-10
0.455244	-6.63389e-10
0.455894	-6.64619e-10
0.456545	-6.65841e-10
0.457196	-6.67057e-10
0.457846	-6.68267e-10
0.458497	-6.69469e-10
0.459148	-6.70666e-10
0.459799	-6.71855e-10
0.460449	-6.73039e-10
0.4611	-6.74216e-10
0.461751	-6.75387e-10
0.462402	-6.76553e-10
0.463052	-6.77712e-10
0.463703	-6.78866e-10
0.464354	-6.80013e-10
0.465005	-6.81156e-10
0.465655	-6.82292e-10
0.466306	-6.83423e-10
0.466957	-6.84549e-10
0.467607	-6.8567e-10
0.468258	-6.86785e-10
0.468909	-6.87895e-10
0.46956	-6.89001e-10
0.47021	-6.90101e-10
0.470861	-6.91196e-10
0.471512	-6.92287e-10
0.472163	-6.93373e-10
0.472813	-6.94454e-10
0.473464	-6.95531e-10
0.474115	-6.96603e-10
0.474765	-6.9767e-10
0.475416	-6.98734e-10
0.476067	-6.99793e-10
0.476718	-7.00848e-10
0.477368	-7.01898e-10
0.478019	-7.02945e-10
0.47867	-7.03988e-10
0.479321	-7.05026e-10
0.479971	-7.06061e-10
0.480622	-7.07092e-10
0.481273	-7.08119e-10
0.481924	-7.09142e-10
0.482574	-7.10162e-10
0.483225	-7.11178e-10
0.483876	-7.12191e-10
0.484526	-7.132e-10
0.485177	-7.14206e-10
0.485828	-7.15208e-10
0.486479	-7.16207e-10
0.487129	-7.17203e-10
0.48778	-7.18196e-10
0.488431	-7.19185e-10
0.489082	-7.20171e-10
0.489732	-7.21154e-10
0.490383	-7.22135e-10
0.491034	-7.23112e-10
0.491685	-7.24086e-10
0.492335	-7.25058e-10
0.492986	-7.26026e-10
0.493637	-7.26992e-10
0.494287	-7.27955e-10
0.494938	-7.28915e-10
0.495589	-7.29873e-10
0.49624	-7.30828e-10
0.49689	-7.31781e-10
0.497541	-7.32731e-10
0.498192	-7.33679e-10
0.498843	-7.34624e-10
0.499493	-7.35566e-10
0.500144	-7.36507e-10
0.500795	-7.37445e-10
0.501446	-7.38381e-10
0.502096	-7.39314e-10
0.502747	-7.40245e-10
0.503398	-7.41174e-10
0.504048	-7.42101e-10
0.504699	-7.43026e-10
0.50535	-7.43949e-10
0.506001	-7.4487e-10
0.506651	-7.45788e-10
0.507302	-7.46705e-10
0.507953	-7.4762e-10
0.508604	-7.48533e-10
0.509254	-7.49444e-10
0.509905	-7.50353e-10
0.510556	-7.5126e-10
0.511206	-7.52166e-10
0.511857	-7.53069e-10
0.512508	-7.53971e-10
0.513159	-7.54872e-10
0.513809	-7.5577e-10
0.51446	-7.56667e-10
0.515111	-7.57563e-10
0.515762	-7.58457e-10
0.516412	-7.59349e-10
0.517063	-7.60239e-10
0.517714	-7.61128e-10
0.518365	-7.62016e-10
0.519015	-7.62902e-10
0.519666	-7.63787e-10
0.520317	-7.6467e-10
0.520967	-7.65552e-10
0.521618	-7.66433e-10
0.522269	-7.67312e-10
0.52292	-7.6819e-10
0.52357	-7.69066e-10
0.524221	-7.69941e-10
0.524872	-7.70815e-10
0.525523	-7.71688e-10
0.526173	-7.7256e-10
0.526824	-7.7343e-10
0.527475	-7.74299e-10
0.528126	-7.75167e-10
0.528776	-7.76034e-10
0.529427	-7.76899e-10
0.530078	-7.77764e-10
0.530728	-7.78627e-10
0.531379	-7.7949e-10
0.53203	-7.80351e-10
0.532681	-7.81211e-10
0.533331	-7.8207e-10
0.533982	-7.82929e-10
0.534633	-7.83786e-10
0.535284	-7.84642e-10
0.535934	-7.85498e-10
0.536585	-7.86352e-10
0.537236	-7.87206e-10
0.537887	-7.88058e-10
0.538537	-7.8891e-10
0.539188	-7.89761e-10
0.539839	-7.90611e-10
0.540489	-7.9146e-10
0.54114	-7.92308e-10
0.541791	-7.93156e-10
0.542442	-7.94002e-10
0.543092	-7.94848e-10
0.543743	-7.95693e-10
0.544394	-7.96538e-10
0.545045	-7.97381e-10
0.545695	-7.98224e-10
0.546346	-7.99066e-10
0.546997	-7.99908e-10
0.547647	-8.00748e-10
0.548298	-8.01588e-10
0.548949	-8.02428e-10
0.5496	-8.03267e-10
0.55025	-8.04105e-10
0.550901	-8.04942e-10
0.551552	-8.05779e-10
0.552203	-8.06615e-10
0.552853	-8.0745e-10
0.553504	-8.08285e-10
0.554155	-8.0912e-10
0.554806	-8.09953e-10
0.555456	-8.10787e-10
0.556107	-8.11619e-10
0.556758	-8.12451e-10
0.557408	-8.13283e-10
0.558059	-8.14114e-10
0.55871	-8.14945e-10
0.559361	-8.15775e-10
0.560011	-8.16604e-10
0.560662	-8.17433e-10
0.561313	-8.18262e-10
0.561964	-8.1909e-10
0.562614	-8.19917e-10
0.563265	-8.20744e-10
0.563916	-8.21571e-10
0.564567	-8.22397e-10
0.565217	-8.23223e-10
0.565868	-8.24049e-10
0.566519	-8.24874e-10
0.567169	-8.25698e-10
0.56782	-8.26522e-10
0.568471	-8.27346e-10
0.569122	-8.2817e-10
0.569772	-8.28993e-10
0.570423	-8.29815e-10
0.571074	-8.30638e-10
0.571725	-8.31459e-10
0.572375	-8.32281e-10
0.573026	-8.33102e-10
0.573677	-8.33923e-10
0.574328	-8.34744e-10
0.574978	-8.35564e-10
0.575629	-8.36384e-10
0.57628	-8.37203e-10
0.57693	-8.38023e-10
0.577581	-8.38842e-10
0.578232	-8.3966e-10
0.578883	-8.40479e-10
0.579533	-8.41297e-10
0.580184	-8.42115e-10
0.580835	-8.42932e-10
0.581486	-8.4375e-10
0.582136	-8.44567e-10
0.582787	-8.45383e-10
0.583438	-8.462e-10
0.584089	-8.47016e-10
0.584739	-8.47832e-10
0.58539	-8.48648e-10
0.586041	-8.49464e-10
0.586691	-8.50279e-10
0.587342	-8.51094e-10
0.587993	-8.51909e-10
0.588644	-8.52724e-10
0.589294	-8.53538e-10
0.589945	-8.54352e-10
0.590596	-8.55166e-10
0.591247	-8.5598e-10
0.591897	-8.56794e-10
0.592548	-8.57608e-10
0.593199	-8.58421e-10
0.593849	-8.59234e-10
0.5945	-8.60047e-10
0.595151	-8.6086e-10
0.595802	-8.61672e-10
0.596452	-8.62485e-10
0.597103	-8.63297e-10
0.597754	-8.64109e-10
0.598405	-8.64921e-10
0.599055	-8.65733e-10
0.599706	-8.66545e-10
0.600357	-8.67356e-10
0.601008	-8.68168e-10
0.601658	-8.68979e-10
0.602309	-8.6979e-10
0.60296	-8.70601e-10
0.60361	-8.71412e-10
0.604261	-8.72223e-10
0.604912	-8.73033e-10
0.605563	-8.73844e-10
0.606213	-8.74654e-10
0.606864	-8.75464e-10
0.607515	-8.76275e-10
0.608166	-8.77085e-10
0.608816	-8.77895e-10
0.609467	-8.78704e-10
0.610118	-8.79514e-10
0.610769	-8.80324e-10
0.611419	-8.81134e-10
0.61207	-8.81943e-10
0.612721	-8.82752e-10
0.613371	-8.83562e-10
0.614022	-8.84371e-10
0.614673	-8.8518e-10
0.615324	-8.85989e-10
0.615974	-8.86798e-10
0.616625	-8.87607e-10
0.617276	-8.88416e-10
0.617927	-8.89225e-10
0.618577	-8.90033e-10
0.619228	-8.90842e-10
0.619879	-8.91651e-10
0.62053	-8.92459e-10
0.62118	-8.93268e-10
0.621831	-8.94076e-10
0.622482	-8.94885e-10
0.623132	-8.95693e-10
0.623783	-8.96501e-10
0.624434	-8.97309e-10
0.625085	-8.98118e-10
0.625735	-8.98926e-10
0.626386	-8.99734e-10
0.627037	-9.00542e-10
0.627688	-9.0135e-10
0.628338	-9.02158e-10
0.628989	-9.02966e-10
0.62964	-9.03774e-10
0.63029	-9.04582e-10
0.630941	-9.05389e-10
0.631592	-9.06197e-10
0.632243	-9.07005e-10
0.632893	-9.07813e-10
0.633544	-9.08621e-10
0.634195	-9.09428e-10
0.634846	-9.10236e-10
0.635496	-9.11044e-10
0.636147	-9.11851e-10
0.636798	-9.12659e-10
0.637449	-9.13467e-10
0.638099	-9.14274e-10
0.63875	-9.15082e-10
0.639401	-9.1589e-10
0.640051	-9.16697e-10
0.640702	-9.17505e-10
0.641353	-9.18312e-10
0.642004	-9.1912e-10
0.642654	-9.19927e-10
0.643305	-9.20735e-10
0.643956	-9.21543e-10
0.644607	-9.2235e-10
0.645257	-9.23158e-10
0.645908	-9.23965e-10
0.646559	-9.24773e-10
0.64721	-9.2558e-10
0.64786	-9.26388e-10
0.648511	-9.27195e-10
0.649162	-9.28003e-10
0.649812	-9.28811e-10
0.650463	-9.29618e-10
0.651114	-9.30426e-10
0.651765	-9.31233e-10
0.652415	-9.32041e-10
0.653066	-9.32849e-10
0.653717	-9.33656e-10
0.654368	-9.34464e-10
0.655018	-9.35272e-10
0.655669	-9.36079e-10
0.65632	-9.36887e-10
0.656971	-9.37695e-10
0.657621	-9.38503e-10
0.658272	-9.3931e-10
0.658923	-9.40118e-10
0.659573	-9.40926e-10
0.660224	-9.41734e-10
0.660875	-9.42541e-10
0.661526	-9.43349e-10
0.662176	-9.44157e-10
0.662827	-9.44965e-10
0.663478	-9.45773e-10
0.664129	-9.46581e-10
0.664779	-9.47389e-10
0.66543	-9.48197e-10
0.666081	-9.49005e-10
0.666731	-9.49813e-10
0.667382	-9.50621e-10
0.668033	-9.51429e-10
0.668684	-9.52238e-10
0.669334	-9.53046e-10
0.669985	-9.53854e-10
0.670636	-9.54662e-10
0.671287	-9.5547e-10
0.671937	-9.56279e-10
0.672588	-9.57087e-10
0.673239	-9.57896e-10
0.67389	-9.58704e-10
0.67454	-9.59512e-10
0.675191	-9.60321e-10
0.675842	-9.61129e-10
0.676492	-9.61938e-10
0.677143	-9.62747e-10
0.677794	-9.63555e-10
0.678445	-9.64364e-10
0.679095	-9.65173e-10
0.679746	-9.65981e-10
0.680397	-9.6679e-10
0.681048	-9.67599e-10
0.681698	-9.68408e-10
0.682349	-9.69217e-10
0.683	-9.70026e-10
0.683651	-9.70835e-10
0.684301	-9.71644e-10
0.684952	-9.72453e-10
0.685603	-9.73262e-10
0.686253	-9.74071e-10
0.686904	-9.7488e-10
0.687555	-9.7569e-10
0.688206	-9.76499e-10
0.688856	-9.77308e-10
0.689507	-9.78118e-10
0.690158	-9.78927e-10
0.690809	-9.79737e-10
0.691459	-9.80546e-10
0.69211	-9.81356e-10
0.692761	-9.82165e-10
0.693412	-9.82975e-10
0.694062	-9.83785e-10
0.694713	-9.84595e-10
0.695364	-9.85404e-10
0.696014	-9.86214e-10
0.696665	-9.87024e-10
0.697316	-9.87834e-10
0.697967	-9.88644e-10
0.698617	-9.89454e-10
0.699268	-9.90264e-10
0.699919	-9.91075e-10
0.70057	-9.91885e-10
0.70122	-9.92695e-10
0.701871	-9.93505e-10
0.702522	-9.94316e-10
0.703172	-9.95126e-10
0.703823	-9.95937e-10
0.704474	-9.96747e-10
0.705125	-9.97558e-10
0.705775	-9.98368e-10
0.706426	-9.99179e-10
0.707077	-9.9999e-10
0.707728	-1.0008e-09
0.708378	-1.00161e-09
0.709029	-1.00242e-09
0.70968	-1.00323e-09
0.710331	-1.00404e-09
0.710981	-1.00486e-09
0.711632	-1.00567e-09
0.712283	-1.00648e-09
0.712933	-1.00729e-09
0.713584	-1.0081e-09
0.714235	-1.00891e-09
0.714886	-1.00972e-09
0.715536	-1.01053e-09
0.716187	-1.01135e-09
0.716838	-1.01216e-09
0.717489	-1.01297e-09
0.718139	-1.01378e-09
0.71879	-1.01459e-09
0.719441	-1.0154e-09
0.720092	-1.01622e-09
0.720742	-1.01703e-09
0.721393	-1.01784e-09
0.722044	-1.01865e-09
0.722694	-1.01946e-09
0.723345	-1.02028e-09
0.723996	-1.02109e-09
0.724647	-1.0219e-09
0.725297	-1.02271e-09
0.725948	-1.02352e-09
0.726599	-1.02434e-09
0.72725	-1.02515e-09
0.7279	-1.02596e-09
0.728551	-1.02677e-09
0.729202	-1.02759e-09
0.729853	-1.0284e-09
0.730503	-1.02921e-09
0.731154	-1.03003e-09
0.731805	-1.03084e-09
0.732455	-1.03165e-09
0.733106	-1.03246e-09
0.733757	-1.03328e-09
0.734408	-1.03409e-09
0.735058	-1.0349e-09
0.735709	-1.03572e-09
0.73636	-1.03653e-09
0.737011	-1.03734e-09
0.737661	-1.03816e-09
0.738312	-1.03897e-09
0.738963	-1.03978e-09
0.739614	-1.0406e-09
0.740264	-1.04141e-09
0.740915	-1.04223e-09
0.741566	-1.04304e-09
0.742216	-1.04385e-09
0.742867	-1.04467e-09
0.743518	-1.04548e-09
0.744169	-1.04629e-09
0.744819	-1.04711e-09
0.74547	-1.04792e-09
0.746121	-1.04874e-09
0.746772	-1.04955e-09
0.747422	-1.05037e-09
0.748073	-1.05118e-09
0.748724	-1.05199e-09
0.749374	-1.05281e-09
0.750025	-1.05362e-09
0.750676	-1.05444e-09
0.751327	-1.05525e-09
0.751977	-1.05607e-09
0.752628	-1.05688e-09
0.753279	-1.0577e-09
0.75393	-1.05851e-09
0.75458	-1.05933e-09
0.755231	-1.06014e-09
0.755882	-1.06096e-09
0.756533	-1.06177e-09
0.757183	-1.06259e-09
0.757834	-1.0634e-09
0.758485	-1.06422e-09
0.759135	-1.06503e-09
0.759786	-1.06585e-09
0.760437	-1.06667e-09
0.761088	-1.06748e-09
0.761738	-1.0683e-09
0.762389	-1.06911e-09
0.76304	-1.06993e-09
0.763691	-1.07074e-09
0.764341	-1.07156e-09
0.764992	-1.07238e-09
0.765643	-1.07319e-09
0.766294	-1.07401e-09
0.766944	-1.07482e-09
0.767595	-1.07564e-09
0.768246	-1.07646e-09
0.768896	-1.07727e-09
0.769547	-1.07809e-09
0.770198	-1.07891e-09
0.770849	-1.07972e-09
0.771499	-1.08054e-09
0.77215	-1.08136e-09
0.772801	-1.08217e-09
0.773452	-1.08299e-09
0.774102	-1.08381e-09
0.774753	-1.08462e-09
0.775404	-1.08544e-09
0.776055	-1.08626e-09
0.776705	-1.08708e-09
0.777356	-1.08789e-09
0.778007	-1.08871e-09
0.778657	-1.08953e-09
0.779308	-1.09035e-09
0.779959	-1.09116e-09
0.78061	-1.09198e-09
0.78126	-1.0928e-09
0.781911	-1.09362e-09
0.782562	-1.09443e-09
0.783213	-1.09525e-09
0.783863	-1.09607e-09
0.784514	-1.09689e-09
0.785165	-1.0977e-09
0.785815	-1.09852e-09
0.786466	-1.09934e-09
0.787117	-1.10016e-09
0.787768	-1.10098e-09
0.788418	-1.1018e-09
0.789069	-1.10261e-09
0.78972	-1.10343e-09
0.790371	-1.10425e-09
0.791021	-1.10507e-09
0.791672	-1.10589e-09
0.792323	-1.10671e-09
0.792974	-1.10753e-09
0.793624	-1.10834e-09
0.794275	-1.10916e-09
0.794926	-1.10998e-09
0.795576	-1.1108e-09
