x [um]	Electric Field [V/cm]	Electric Field [V/cm]
0.193649	2.05479	2.05431
0.1943	2.05479	2.05431
0.194951	2.05573	2.05526
0.195601	2.05665	2.05619
0.196252	2.05756	2.05711
0.196903	2.05846	2.05801
0.197554	2.05934	2.0589
0.198204	2.06021	2.05978
0.198855	2.06106	2.06064
0.199506	2.0619	2.06148
0.200156	2.06273	2.06232
0.200807	2.06354	2.06314
0.201458	2.06434	2.06394
0.202109	2.06513	2.06474
0.202759	2.06591	2.06552
0.20341	2.06667	2.06629
0.204061	2.06742	2.06704
0.204712	2.06816	2.06779
0.205362	2.06888	2.06852
0.206013	2.0696	2.06924
0.206664	2.0703	2.06995
0.207315	2.07099	2.07064
0.207965	2.07167	2.07133
0.208616	2.07234	2.07201
0.209267	2.073	2.07267
0.209917	2.07365	2.07332
0.210568	2.07428	2.07397
0.211219	2.07491	2.0746
0.21187	2.07553	2.07522
0.21252	2.07613	2.07583
0.213171	2.07673	2.07643
0.213822	2.07732	2.07703
0.214473	2.0779	2.07761
0.215123	2.07847	2.07818
0.215774	2.07902	2.07875
0.216425	2.07957	2.0793
0.217076	2.08012	2.07985
0.217726	2.08065	2.08038
0.218377	2.08117	2.08091
0.219028	2.08169	2.08143
0.219678	2.08219	2.08194
0.220329	2.08269	2.08244
0.22098	2.08318	2.08294
0.221631	2.08367	2.08342
0.222281	2.08414	2.0839
0.222932	2.08461	2.08437
0.223583	2.08507	2.08484
0.224234	2.08552	2.08529
0.224884	2.08596	2.08574
0.225535	2.0864	2.08618
0.226186	2.08683	2.08661
0.226837	2.08725	2.08704
0.227487	2.08767	2.08746
0.228138	2.08808	2.08787
0.228789	2.08848	2.08828
0.229439	2.08887	2.08868
0.23009	2.08926	2.08907
0.230741	2.08965	2.08945
0.231392	2.09002	2.08983
0.232042	2.09039	2.09021
0.232693	2.09076	2.09057
0.233344	2.09111	2.09093
0.233995	2.09147	2.09129
0.234645	2.09181	2.09164
0.235296	2.09215	2.09198
0.235947	2.09249	2.09232
0.236597	2.09282	2.09265
0.237248	2.09314	2.09298
0.237899	2.09346	2.0933
0.23855	2.09377	2.09361
0.2392	2.09408	2.09392
0.239851	2.09438	2.09423
0.240502	2.09468	2.09453
0.241153	2.09497	2.09482
0.241803	2.09526	2.09512
0.242454	2.09554	2.0954
0.243105	2.09582	2.09568
0.243756	2.09609	2.09596
0.244406	2.09636	2.09623
0.245057	2.09663	2.09649
0.245708	2.09689	2.09676
0.246358	2.09714	2.09701
0.247009	2.09739	2.09727
0.24766	2.09764	2.09752
0.248311	2.09788	2.09776
0.248961	2.09812	2.098
0.249612	2.09835	2.09824
0.250263	2.09859	2.09847
0.250914	2.09881	2.0987
0.251564	2.09903	2.09892
0.252215	2.09925	2.09914
0.252866	2.09947	2.09936
0.253517	2.09968	2.09957
0.254167	2.09989	2.09978
0.254818	2.10009	2.09999
0.255469	2.10029	2.10019
0.256119	2.10049	2.10039
0.25677	2.10068	2.10059
0.257421	2.10087	2.10078
0.258072	2.10106	2.10097
0.258722	2.10125	2.10115
0.259373	2.10143	2.10134
0.260024	2.1016	2.10151
0.260675	2.10178	2.10169
0.261325	2.10195	2.10186
0.261976	2.10212	2.10203
0.262627	2.10228	2.1022
0.263278	2.10245	2.10236
0.263928	2.1026	2.10253
0.264579	2.10276	2.10268
0.26523	2.10292	2.10284
0.26588	2.10307	2.10299
0.266531	2.10322	2.10314
0.267182	2.10336	2.10329
0.267833	2.1035	2.10343
0.268483	2.10365	2.10358
0.269134	2.10378	2.10371
0.269785	2.10392	2.10385
0.270436	2.10405	2.10399
0.271086	2.10418	2.10412
0.271737	2.10431	2.10425
0.272388	2.10444	2.10438
0.273038	2.10456	2.1045
0.273689	2.10468	2.10462
0.27434	2.1048	2.10474
0.274991	2.10492	2.10486
0.275641	2.10504	2.10498
0.276292	2.10515	2.10509
0.276943	2.10526	2.1052
0.277594	2.10537	2.10531
0.278244	2.10548	2.10542
0.278895	2.10558	2.10553
0.279546	2.10568	2.10563
0.280197	2.10578	2.10573
0.280847	2.10588	2.10583
0.281498	2.10598	2.10593
0.282149	2.10608	2.10603
0.282799	2.10617	2.10612
0.28345	2.10626	2.10621
0.284101	2.10635	2.10631
0.284752	2.10644	2.10639
0.285402	2.10652	2.10648
0.286053	2.10661	2.10657
0.286704	2.10669	2.10665
0.287355	2.10677	2.10673
0.288005	2.10685	2.10681
0.288656	2.10693	2.10689
0.289307	2.10701	2.10697
0.289958	2.10708	2.10705
0.290608	2.10716	2.10712
0.291259	2.10723	2.10719
0.29191	2.1073	2.10727
0.29256	2.10737	2.10734
0.293211	2.10744	2.10741
0.293862	2.10751	2.10747
0.294513	2.10757	2.10754
0.295163	2.10764	2.1076
0.295814	2.1077	2.10767
0.296465	2.10776	2.10773
0.297116	2.10782	2.10779
0.297766	2.10788	2.10785
0.298417	2.10794	2.10791
0.299068	2.10799	2.10796
0.299719	2.10805	2.10802
0.300369	2.1081	2.10807
0.30102	2.10815	2.10813
0.301671	2.10821	2.10818
0.302321	2.10826	2.10823
0.302972	2.10831	2.10828
0.303623	2.10835	2.10833
0.304274	2.1084	2.10838
0.304924	2.10845	2.10842
0.305575	2.10849	2.10847
0.306226	2.10854	2.10851
0.306877	2.10858	2.10856
0.307527	2.10862	2.1086
0.308178	2.10866	2.10864
0.308829	2.1087	2.10868
0.30948	2.10874	2.10872
0.31013	2.10878	2.10876
0.310781	2.10882	2.1088
0.311432	2.10885	2.10884
0.312082	2.10889	2.10887
0.312733	2.10892	2.10891
0.313384	2.10896	2.10894
0.314035	2.10899	2.10897
0.314685	2.10902	2.10901
0.315336	2.10905	2.10904
0.315987	2.10908	2.10907
0.316638	2.10911	2.1091
0.317288	2.10914	2.10913
0.317939	2.10917	2.10916
0.31859	2.1092	2.10918
0.31924	2.10923	2.10921
0.319891	2.10925	2.10924
0.320542	2.10928	2.10926
0.321193	2.1093	2.10929
0.321843	2.10932	2.10931
0.322494	2.10935	2.10934
0.323145	2.10937	2.10936
0.323796	2.10939	2.10938
0.324446	2.10941	2.1094
0.325097	2.10943	2.10942
0.325748	2.10945	2.10944
0.326399	2.10947	2.10946
0.327049	2.10949	2.10948
0.3277	2.10951	2.1095
0.328351	2.10953	2.10952
0.329001	2.10954	2.10953
0.329652	2.10956	2.10955
0.330303	2.10957	2.10957
0.330954	2.10959	2.10958
0.331604	2.1096	2.1096
0.332255	2.10962	2.10961
0.332906	2.10963	2.10962
0.333557	2.10964	2.10964
0.334207	2.10966	2.10965
0.334858	2.10967	2.10966
0.335509	2.10968	2.10967
0.33616	2.10969	2.10968
0.33681	2.1097	2.1097
0.337461	2.10971	2.10971
0.338112	2.10972	2.10971
0.338762	2.10973	2.10972
0.339413	2.10974	2.10973
0.340064	2.10974	2.10974
0.340715	2.10975	2.10975
0.341365	2.10976	2.10976
0.342016	2.10977	2.10976
0.342667	2.10977	2.10977
0.343318	2.10978	2.10978
0.343968	2.10978	2.10978
0.344619	2.10979	2.10979
0.34527	2.10979	2.10979
0.345921	2.1098	2.1098
0.346571	2.1098	2.1098
0.347222	2.1098	2.1098
0.347873	2.10981	2.10981
0.348523	2.10981	2.10981
0.349174	2.10981	2.10981
0.349825	2.10982	2.10981
0.350476	2.10982	2.10982
0.351126	2.10982	2.10982
0.351777	2.10982	2.10982
0.352428	2.10982	2.10982
0.353079	2.10982	2.10982
0.353729	2.10982	2.10982
0.35438	2.10982	2.10982
0.355031	2.10982	2.10982
0.355681	2.10982	2.10982
0.356332	2.10982	2.10982
0.356983	2.10982	2.10982
0.357634	2.10981	2.10981
0.358284	2.10981	2.10981
0.358935	2.10981	2.10981
0.359586	2.10981	2.10981
0.360237	2.1098	2.1098
0.360887	2.1098	2.1098
0.361538	2.1098	2.1098
0.362189	2.10979	2.10979
0.36284	2.10979	2.10979
0.36349	2.10978	2.10979
0.364141	2.10978	2.10978
0.364792	2.10978	2.10978
0.365442	2.10977	2.10977
0.366093	2.10976	2.10977
0.366744	2.10976	2.10976
0.367395	2.10975	2.10976
0.368045	2.10975	2.10975
0.368696	2.10974	2.10974
0.369347	2.10973	2.10974
0.369998	2.10973	2.10973
0.370648	2.10972	2.10972
0.371299	2.10971	2.10972
0.37195	2.10971	2.10971
0.372601	2.1097	2.1097
0.373251	2.10969	2.1097
0.373902	2.10968	2.10969
0.374553	2.10968	2.10968
0.375203	2.10967	2.10967
0.375854	2.10966	2.10966
0.376505	2.10965	2.10965
0.377156	2.10964	2.10965
0.377806	2.10963	2.10964
0.378457	2.10962	2.10963
0.379108	2.10961	2.10962
0.379759	2.1096	2.10961
0.380409	2.10959	2.1096
0.38106	2.10959	2.10959
0.381711	2.10958	2.10958
0.382362	2.10956	2.10957
0.383012	2.10955	2.10956
0.383663	2.10954	2.10955
0.384314	2.10953	2.10954
0.384964	2.10952	2.10953
0.385615	2.10951	2.10952
0.386266	2.1095	2.10951
0.386917	2.10949	2.10949
0.387567	2.10948	2.10948
0.388218	2.10947	2.10947
0.388869	2.10945	2.10946
0.38952	2.10944	2.10945
0.39017	2.10943	2.10944
0.390821	2.10942	2.10942
0.391472	2.10941	2.10941
0.392122	2.10939	2.1094
0.392773	2.10938	2.10939
0.393424	2.10937	2.10938
0.394075	2.10936	2.10936
0.394725	2.10934	2.10935
0.395376	2.10933	2.10934
0.396027	2.10932	2.10932
0.396678	2.1093	2.10931
0.397328	2.10929	2.1093
0.397979	2.10928	2.10928
0.39863	2.10926	2.10927
0.399281	2.10925	2.10926
0.399931	2.10924	2.10924
0.400582	2.10922	2.10923
0.401233	2.10921	2.10922
0.401883	2.1092	2.1092
0.402534	2.10918	2.10919
0.403185	2.10917	2.10917
0.403836	2.10915	2.10916
0.404486	2.10914	2.10915
0.405137	2.10912	2.10913
0.405788	2.10911	2.10912
0.406439	2.10909	2.1091
0.407089	2.10908	2.10909
0.40774	2.10906	2.10907
0.408391	2.10905	2.10906
0.409042	2.10903	2.10904
0.409692	2.10902	2.10903
0.410343	2.109	2.10901
0.410994	2.10899	2.109
0.411644	2.10897	2.10898
0.412295	2.10896	2.10897
0.412946	2.10894	2.10895
0.413597	2.10893	2.10893
0.414247	2.10891	2.10892
0.414898	2.1089	2.1089
0.415549	2.10888	2.10889
0.4162	2.10886	2.10887
0.41685	2.10885	2.10886
0.417501	2.10883	2.10884
0.418152	2.10882	2.10882
0.418803	2.1088	2.10881
0.419453	2.10878	2.10879
0.420104	2.10877	2.10878
0.420755	2.10875	2.10876
0.421405	2.10873	2.10874
0.422056	2.10872	2.10873
0.422707	2.1087	2.10871
0.423358	2.10868	2.10869
0.424008	2.10867	2.10868
0.424659	2.10865	2.10866
0.42531	2.10863	2.10864
0.425961	2.10862	2.10863
0.426611	2.1086	2.10861
0.427262	2.10858	2.10859
0.427913	2.10857	2.10858
0.428563	2.10855	2.10856
0.429214	2.10853	2.10854
0.429865	2.10852	2.10852
0.430516	2.1085	2.10851
0.431166	2.10848	2.10849
0.431817	2.10846	2.10847
0.432468	2.10845	2.10846
0.433119	2.10843	2.10844
0.433769	2.10841	2.10842
0.43442	2.10839	2.1084
0.435071	2.10838	2.10839
0.435722	2.10836	2.10837
0.436372	2.10834	2.10835
0.437023	2.10832	2.10833
0.437674	2.10831	2.10831
0.438324	2.10829	2.1083
0.438975	2.10827	2.10828
0.439626	2.10825	2.10826
0.440277	2.10823	2.10824
0.440927	2.10822	2.10823
0.441578	2.1082	2.10821
0.442229	2.10818	2.10819
0.44288	2.10816	2.10817
0.44353	2.10814	2.10815
0.444181	2.10813	2.10814
0.444832	2.10811	2.10812
0.445483	2.10809	2.1081
0.446133	2.10807	2.10808
0.446784	2.10805	2.10806
0.447435	2.10804	2.10804
0.448085	2.10802	2.10803
0.448736	2.108	2.10801
0.449387	2.10798	2.10799
0.450038	2.10796	2.10797
0.450688	2.10794	2.10795
0.451339	2.10793	2.10793
0.45199	2.10791	2.10792
0.452641	2.10789	2.1079
0.453291	2.10787	2.10788
0.453942	2.10785	2.10786
0.454593	2.10783	2.10784
0.455244	2.10781	2.10782
0.455894	2.1078	2.1078
0.456545	2.10778	2.10779
0.457196	2.10776	2.10777
0.457846	2.10774	2.10775
0.458497	2.10772	2.10773
0.459148	2.1077	2.10771
0.459799	2.10768	2.10769
0.460449	2.10766	2.10767
0.4611	2.10764	2.10765
0.461751	2.10763	2.10764
0.462402	2.10761	2.10762
0.463052	2.10759	2.1076
0.463703	2.10757	2.10758
0.464354	2.10755	2.10756
0.465005	2.10753	2.10754
0.465655	2.10751	2.10752
0.466306	2.10749	2.1075
0.466957	2.10747	2.10748
0.467607	2.10745	2.10746
0.468258	2.10744	2.10745
0.468909	2.10742	2.10743
0.46956	2.1074	2.10741
0.47021	2.10738	2.10739
0.470861	2.10736	2.10737
0.471512	2.10734	2.10735
0.472163	2.10732	2.10733
0.472813	2.1073	2.10731
0.473464	2.10728	2.10729
0.474115	2.10726	2.10727
0.474765	2.10724	2.10725
0.475416	2.10722	2.10723
0.476067	2.1072	2.10721
0.476718	2.10719	2.1072
0.477368	2.10717	2.10718
0.478019	2.10715	2.10716
0.47867	2.10713	2.10714
0.479321	2.10711	2.10712
0.479971	2.10709	2.1071
0.480622	2.10707	2.10708
0.481273	2.10705	2.10706
0.481924	2.10703	2.10704
0.482574	2.10701	2.10702
0.483225	2.10699	2.107
0.483876	2.10697	2.10698
0.484526	2.10695	2.10696
0.485177	2.10693	2.10694
0.485828	2.10691	2.10692
0.486479	2.10689	2.1069
0.487129	2.10687	2.10688
0.48778	2.10685	2.10686
0.488431	2.10683	2.10684
0.489082	2.10681	2.10682
0.489732	2.1068	2.10681
0.490383	2.10678	2.10679
0.491034	2.10676	2.10677
0.491685	2.10674	2.10675
0.492335	2.10672	2.10673
0.492986	2.1067	2.10671
0.493637	2.10668	2.10669
0.494287	2.10666	2.10667
0.494938	2.10664	2.10665
0.495589	2.10662	2.10663
0.49624	2.1066	2.10661
0.49689	2.10658	2.10659
0.497541	2.10656	2.10657
0.498192	2.10654	2.10655
0.498843	2.10652	2.10653
0.499493	2.1065	2.10651
0.500144	2.10648	2.10649
0.500795	2.10646	2.10647
0.501446	2.10644	2.10645
0.502096	2.10642	2.10643
0.502747	2.1064	2.10641
0.503398	2.10638	2.10639
0.504048	2.10636	2.10637
0.504699	2.10634	2.10635
0.50535	2.10632	2.10633
0.506001	2.1063	2.10631
0.506651	2.10628	2.10629
0.507302	2.10626	2.10627
0.507953	2.10624	2.10625
0.508604	2.10622	2.10623
0.509254	2.1062	2.10621
0.509905	2.10618	2.10619
0.510556	2.10616	2.10617
0.511206	2.10614	2.10615
0.511857	2.10612	2.10613
0.512508	2.1061	2.10611
0.513159	2.10608	2.10609
0.513809	2.10606	2.10607
0.51446	2.10604	2.10605
0.515111	2.10602	2.10603
0.515762	2.106	2.10601
0.516412	2.10598	2.10599
0.517063	2.10596	2.10597
0.517714	2.10594	2.10595
0.518365	2.10592	2.10593
0.519015	2.1059	2.10591
0.519666	2.10588	2.10589
0.520317	2.10586	2.10587
0.520967	2.10584	2.10585
0.521618	2.10582	2.10583
0.522269	2.1058	2.10581
0.52292	2.10578	2.10579
0.52357	2.10576	2.10577
0.524221	2.10574	2.10575
0.524872	2.10572	2.10573
0.525523	2.1057	2.10571
0.526173	2.10568	2.10569
0.526824	2.10566	2.10567
0.527475	2.10564	2.10565
0.528126	2.10562	2.10563
0.528776	2.1056	2.10561
0.529427	2.10558	2.10559
0.530078	2.10556	2.10557
0.530728	2.10554	2.10555
0.531379	2.10552	2.10553
0.53203	2.1055	2.10551
0.532681	2.10548	2.10549
0.533331	2.10546	2.10547
0.533982	2.10544	2.10545
0.534633	2.10542	2.10543
0.535284	2.1054	2.10541
0.535934	2.10538	2.10539
0.536585	2.10536	2.10537
0.537236	2.10534	2.10535
0.537887	2.10532	2.10533
0.538537	2.1053	2.10531
0.539188	2.10528	2.10529
0.539839	2.10526	2.10527
0.540489	2.10524	2.10525
0.54114	2.10522	2.10523
0.541791	2.1052	2.10521
0.542442	2.10518	2.10519
0.543092	2.10516	2.10517
0.543743	2.10514	2.10515
0.544394	2.10512	2.10513
0.545045	2.10509	2.10511
0.545695	2.10507	2.10508
0.546346	2.10505	2.10506
0.546997	2.10503	2.10504
0.547647	2.10501	2.10502
0.548298	2.10499	2.105
0.548949	2.10497	2.10498
0.5496	2.10495	2.10496
0.55025	2.10493	2.10494
0.550901	2.10491	2.10492
0.551552	2.10489	2.1049
0.552203	2.10487	2.10488
0.552853	2.10485	2.10486
0.553504	2.10483	2.10484
0.554155	2.10481	2.10482
0.554806	2.10479	2.1048
0.555456	2.10477	2.10478
0.556107	2.10475	2.10476
0.556758	2.10473	2.10474
0.557408	2.10471	2.10472
0.558059	2.10469	2.1047
0.55871	2.10467	2.10468
0.559361	2.10465	2.10466
0.560011	2.10463	2.10464
0.560662	2.10461	2.10462
0.561313	2.10459	2.1046
0.561964	2.10457	2.10458
0.562614	2.10455	2.10456
0.563265	2.10453	2.10454
0.563916	2.10451	2.10452
0.564567	2.10449	2.1045
0.565217	2.10447	2.10448
0.565868	2.10445	2.10446
0.566519	2.10443	2.10444
0.567169	2.1044	2.10442
0.56782	2.10438	2.10439
0.568471	2.10436	2.10437
0.569122	2.10434	2.10435
0.569772	2.10432	2.10433
0.570423	2.1043	2.10431
0.571074	2.10428	2.10429
0.571725	2.10426	2.10427
0.572375	2.10424	2.10425
0.573026	2.10422	2.10423
0.573677	2.1042	2.10421
0.574328	2.10418	2.10419
0.574978	2.10416	2.10417
0.575629	2.10414	2.10415
0.57628	2.10412	2.10413
0.57693	2.1041	2.10411
0.577581	2.10408	2.10409
0.578232	2.10406	2.10407
0.578883	2.10404	2.10405
0.579533	2.10402	2.10403
0.580184	2.104	2.10401
0.580835	2.10398	2.10399
0.581486	2.10396	2.10397
0.582136	2.10394	2.10395
0.582787	2.10392	2.10393
0.583438	2.1039	2.10391
0.584089	2.10388	2.10389
0.584739	2.10386	2.10387
0.58539	2.10383	2.10384
0.586041	2.10381	2.10382
0.586691	2.10379	2.1038
0.587342	2.10377	2.10378
0.587993	2.10375	2.10376
0.588644	2.10373	2.10374
0.589294	2.10371	2.10372
0.589945	2.10369	2.1037
0.590596	2.10367	2.10368
0.591247	2.10365	2.10366
0.591897	2.10363	2.10364
0.592548	2.10361	2.10362
0.593199	2.10359	2.1036
0.593849	2.10357	2.10358
0.5945	2.10355	2.10356
0.595151	2.10353	2.10354
0.595802	2.10351	2.10352
0.596452	2.10349	2.1035
0.597103	2.10347	2.10348
0.597754	2.10345	2.10346
0.598405	2.10343	2.10344
0.599055	2.10341	2.10342
0.599706	2.10339	2.1034
0.600357	2.10337	2.10338
0.601008	2.10334	2.10336
0.601658	2.10332	2.10333
0.602309	2.1033	2.10331
0.60296	2.10328	2.10329
0.60361	2.10326	2.10327
0.604261	2.10324	2.10325
0.604912	2.10322	2.10323
0.605563	2.1032	2.10321
0.606213	2.10318	2.10319
0.606864	2.10316	2.10317
0.607515	2.10314	2.10315
0.608166	2.10312	2.10313
0.608816	2.1031	2.10311
0.609467	2.10308	2.10309
0.610118	2.10306	2.10307
0.610769	2.10304	2.10305
0.611419	2.10302	2.10303
0.61207	2.103	2.10301
0.612721	2.10298	2.10299
0.613371	2.10296	2.10297
0.614022	2.10294	2.10295
0.614673	2.10292	2.10293
0.615324	2.1029	2.10291
0.615974	2.10287	2.10288
0.616625	2.10285	2.10286
0.617276	2.10283	2.10284
0.617927	2.10281	2.10282
0.618577	2.10279	2.1028
0.619228	2.10277	2.10278
0.619879	2.10275	2.10276
0.62053	2.10273	2.10274
0.62118	2.10271	2.10272
0.621831	2.10269	2.1027
0.622482	2.10267	2.10268
0.623132	2.10265	2.10266
0.623783	2.10263	2.10264
0.624434	2.10261	2.10262
0.625085	2.10259	2.1026
0.625735	2.10257	2.10258
0.626386	2.10255	2.10256
0.627037	2.10253	2.10254
0.627688	2.10251	2.10252
0.628338	2.10249	2.1025
0.628989	2.10247	2.10248
0.62964	2.10244	2.10246
0.63029	2.10242	2.10243
0.630941	2.1024	2.10241
0.631592	2.10238	2.10239
0.632243	2.10236	2.10237
0.632893	2.10234	2.10235
0.633544	2.10232	2.10233
0.634195	2.1023	2.10231
0.634846	2.10228	2.10229
0.635496	2.10226	2.10227
0.636147	2.10224	2.10225
0.636798	2.10222	2.10223
0.637449	2.1022	2.10221
0.638099	2.10218	2.10219
0.63875	2.10216	2.10217
0.639401	2.10214	2.10215
0.640051	2.10212	2.10213
0.640702	2.1021	2.10211
0.641353	2.10208	2.10209
0.642004	2.10206	2.10207
0.642654	2.10204	2.10205
0.643305	2.10201	2.10202
0.643956	2.10199	2.102
0.644607	2.10197	2.10198
0.645257	2.10195	2.10196
0.645908	2.10193	2.10194
0.646559	2.10191	2.10192
0.64721	2.10189	2.1019
0.64786	2.10187	2.10188
0.648511	2.10185	2.10186
0.649162	2.10183	2.10184
0.649812	2.10181	2.10182
0.650463	2.10179	2.1018
0.651114	2.10177	2.10178
0.651765	2.10175	2.10176
0.652415	2.10173	2.10174
0.653066	2.10171	2.10172
0.653717	2.10169	2.1017
0.654368	2.10167	2.10168
0.655018	2.10165	2.10166
0.655669	2.10163	2.10164
0.65632	2.1016	2.10161
0.656971	2.10158	2.10159
0.657621	2.10156	2.10157
0.658272	2.10154	2.10155
0.658923	2.10152	2.10153
0.659573	2.1015	2.10151
0.660224	2.10148	2.10149
0.660875	2.10146	2.10147
0.661526	2.10144	2.10145
0.662176	2.10142	2.10143
0.662827	2.1014	2.10141
0.663478	2.10138	2.10139
0.664129	2.10136	2.10137
0.664779	2.10134	2.10135
0.66543	2.10132	2.10133
0.666081	2.1013	2.10131
0.666731	2.10128	2.10129
0.667382	2.10126	2.10127
0.668033	2.10124	2.10125
0.668684	2.10121	2.10123
0.669334	2.10119	2.1012
0.669985	2.10117	2.10118
0.670636	2.10115	2.10116
0.671287	2.10113	2.10114
0.671937	2.10111	2.10112
0.672588	2.10109	2.1011
0.673239	2.10107	2.10108
0.67389	2.10105	2.10106
0.67454	2.10103	2.10104
0.675191	2.10101	2.10102
0.675842	2.10099	2.101
0.676492	2.10097	2.10098
0.677143	2.10095	2.10096
0.677794	2.10093	2.10094
0.678445	2.10091	2.10092
0.679095	2.10089	2.1009
0.679746	2.10087	2.10088
0.680397	2.10085	2.10086
0.681048	2.10082	2.10083
0.681698	2.1008	2.10081
0.682349	2.10078	2.10079
0.683	2.10076	2.10077
0.683651	2.10074	2.10075
0.684301	2.10072	2.10073
0.684952	2.1007	2.10071
0.685603	2.10068	2.10069
0.686253	2.10066	2.10067
0.686904	2.10064	2.10065
0.687555	2.10062	2.10063
0.688206	2.1006	2.10061
0.688856	2.10058	2.10059
0.689507	2.10056	2.10057
0.690158	2.10054	2.10055
0.690809	2.10052	2.10053
0.691459	2.1005	2.10051
0.69211	2.10048	2.10049
0.692761	2.10045	2.10047
0.693412	2.10043	2.10044
0.694062	2.10041	2.10042
0.694713	2.10039	2.1004
0.695364	2.10037	2.10038
0.696014	2.10035	2.10036
0.696665	2.10033	2.10034
0.697316	2.10031	2.10032
0.697967	2.10029	2.1003
0.698617	2.10027	2.10028
0.699268	2.10025	2.10026
0.699919	2.10023	2.10024
0.70057	2.10021	2.10022
0.70122	2.10019	2.1002
0.701871	2.10017	2.10018
0.702522	2.10015	2.10016
0.703172	2.10013	2.10014
0.703823	2.10011	2.10012
0.704474	2.10008	2.1001
0.705125	2.10006	2.10007
0.705775	2.10004	2.10005
0.706426	2.10002	2.10003
0.707077	2.1	2.10001
0.707728	2.09998	2.09999
0.708378	2.09996	2.09997
0.709029	2.09994	2.09995
0.70968	2.09992	2.09993
0.710331	2.0999	2.09991
0.710981	2.09988	2.09989
0.711632	2.09986	2.09987
0.712283	2.09984	2.09985
0.712933	2.09982	2.09983
0.713584	2.0998	2.09981
0.714235	2.09978	2.09979
0.714886	2.09976	2.09977
0.715536	2.09974	2.09975
0.716187	2.09971	2.09973
0.716838	2.09969	2.0997
0.717489	2.09967	2.09968
0.718139	2.09965	2.09966
0.71879	2.09963	2.09964
